#  r_eff/a      n_e [1e20 m^-3] n_D [1e20 m^-3] n_C [1e20 m^-3] T_e [keV]       T_i [keV]       Sp_e            Sp_D            Sp_C
0.0000000e+00   3.0921078e+00   2.4450407e+00   1.0307024e-01   2.6867673e+00   2.6668358e+00   2.1079276e-02   8.8249361e-02   0.0000000e+00
1.9570821e-02   3.0914882e+00   2.4445677e+00   1.0304984e-01   2.6861533e+00   2.6732295e+00   2.1901634e-02   8.0035199e-02   0.0000000e+00
3.3326288e-02   3.0792308e+00   2.4349224e+00   1.0264140e-01   2.6841118e+00   2.6762442e+00   2.2898381e-02   7.5688350e-02   0.0000000e+00
4.3125042e-02   3.0573707e+00   2.4176863e+00   1.0191277e-01   2.6809506e+00   2.6762512e+00   2.4326632e-02   7.4782442e-02   0.0000000e+00
5.0825721e-02   3.0279431e+00   2.3944407e+00   1.0093183e-01   2.6769771e+00   2.6736219e+00   2.6443508e-02   7.6891103e-02   0.0000000e+00
5.8283822e-02   2.9929831e+00   2.3667669e+00   9.9766420e-02   2.6724987e+00   2.6687278e+00   2.9506124e-02   8.1587962e-02   0.0000000e+00
6.6688616e-02   2.9545258e+00   2.3362463e+00   9.8484421e-02   2.6678231e+00   2.6619402e+00   3.3771600e-02   8.8446645e-02   0.0000000e+00
7.5742942e-02   2.9146064e+00   2.3044602e+00   9.7153693e-02   2.6632577e+00   2.6536305e+00   3.9497053e-02   9.7040782e-02   0.0000000e+00
8.4948512e-02   2.8752600e+00   2.2729900e+00   9.5842100e-02   2.6591100e+00   2.6441700e+00   4.6939600e-02   1.0694400e-01   0.0000000e+00
9.3912367e-02   2.8383542e+00   2.2432981e+00   9.4611913e-02   2.6550496e+00   2.6339439e+00   5.6049108e-02   1.1758110e-01   0.0000000e+00
1.0266286e-01   2.8050870e+00   2.2163711e+00   9.3503031e-02   2.6481938e+00   2.6233924e+00   6.5546434e-02   1.2778153e-01   0.0000000e+00
1.1133367e-01   2.7764887e+00   2.1930766e+00   9.2549761e-02   2.6350221e+00   2.6129693e+00   7.3845182e-02   1.3622594e-01   0.0000000e+00
1.2004396e-01   2.7534924e+00   2.1742041e+00   9.1783173e-02   2.6130291e+00   2.6031150e+00   7.9653561e-02   1.4188933e-01   0.0000000e+00
1.2880558e-01   2.7363115e+00   2.1599644e+00   9.1210403e-02   2.5872128e+00   2.5941703e+00   8.3857074e-02   1.4592218e-01   0.0000000e+00
1.3758229e-01   2.7248368e+00   2.1503094e+00   9.0827865e-02   2.5659344e+00   2.5864315e+00   8.8317092e-02   1.5045007e-01   0.0000000e+00
1.4633923e-01   2.7189426e+00   2.1451753e+00   9.0631404e-02   2.5568998e+00   2.5801754e+00   9.4786705e-02   1.5747139e-01   0.0000000e+00
1.5506547e-01   2.7182720e+00   2.1442856e+00   9.0609130e-02   2.5577786e+00   2.5753905e+00   1.0332986e-01   1.6701263e-01   0.0000000e+00
1.6376851e-01   2.7222913e+00   2.1472001e+00   9.0743200e-02   2.5585140e+00   2.5718435e+00   1.1271019e-01   1.7758228e-01   0.0000000e+00
1.7245622e-01   2.7304542e+00   2.1534684e+00   9.1015360e-02   2.5490466e+00   2.5692939e+00   1.2168240e-01   1.8767175e-01   0.0000000e+00
1.8113216e-01   2.7419144e+00   2.1624051e+00   9.1397380e-02   2.5269468e+00   2.5674483e+00   1.2995350e-01   1.9662593e-01   0.0000000e+00
1.8979429e-01   2.7554362e+00   2.1730196e+00   9.1848069e-02   2.4996962e+00   2.5659441e+00   1.3846766e-01   2.0489836e-01   0.0000000e+00
1.9844022e-01   2.7697577e+00   2.1843012e+00   9.2325371e-02   2.4754262e+00   2.5644143e+00   1.4824804e-01   2.1301465e-01   0.0000000e+00
2.0706827e-01   2.7836232e+00   2.1952430e+00   9.2787444e-02   2.4595689e+00   2.5624767e+00   1.5954502e-01   2.2107414e-01   0.0000000e+00
2.1567842e-01   2.7957907e+00   2.2048479e+00   9.3192920e-02   2.4515349e+00   2.5597153e+00   1.7088473e-01   2.2822508e-01   0.0000000e+00
2.2427084e-01   2.8050200e+00   2.2121200e+00   9.3500500e-02   2.4499200e+00   2.5557100e+00   1.8056000e-01   2.3348700e-01   0.0000000e+00
2.3284573e-01   2.8102106e+00   2.2161749e+00   9.3673526e-02   2.4523705e+00   2.5500285e+00   1.8745331e-01   2.3626951e-01   0.0000000e+00
2.4140333e-01   2.8108206e+00   2.2165746e+00   9.3693920e-02   2.4527349e+00   2.5421914e+00   1.9280566e-01   2.3754244e-01   0.0000000e+00
2.4994385e-01   2.8064479e+00   2.2129928e+00   9.3548245e-02   2.4439120e+00   2.5317076e+00   1.9844773e-01   2.3866565e-01   0.0000000e+00
2.5846747e-01   2.7967553e+00   2.2051556e+00   9.3225239e-02   2.4200728e+00   2.5181331e+00   2.0600163e-01   2.4080891e-01   0.0000000e+00
2.6697394e-01   2.7818867e+00   2.1931759e+00   9.2729678e-02   2.3847902e+00   2.5013738e+00   2.1554852e-01   2.4373679e-01   0.0000000e+00
2.7546280e-01   2.7622018e+00   2.1773398e+00   9.2073533e-02   2.3458509e+00   2.4814925e+00   2.2647880e-01   2.4658411e-01   0.0000000e+00
2.8393359e-01   2.7380835e+00   2.1579531e+00   9.1269558e-02   2.3106819e+00   2.4585666e+00   2.3818986e-01   2.4851246e-01   0.0000000e+00
2.9238569e-01   2.7102513e+00   2.1355966e+00   9.0341752e-02   2.2810310e+00   2.4328849e+00   2.5023135e-01   2.4912922e-01   0.0000000e+00
3.0081837e-01   2.6796838e+00   2.1110630e+00   8.9322773e-02   2.2542738e+00   2.4048986e+00   2.6227023e-01   2.4838487e-01   0.0000000e+00
3.0923087e-01   2.6473628e+00   2.0851481e+00   8.8245396e-02   2.2277008e+00   2.3750613e+00   2.7396447e-01   2.4623919e-01   0.0000000e+00
3.1762298e-01   2.6141505e+00   2.0585469e+00   8.7138368e-02   2.1996608e+00   2.3437614e+00   2.8450681e-01   2.4267031e-01   0.0000000e+00
3.2599508e-01   2.5807533e+00   2.0318235e+00   8.6025197e-02   2.1698769e+00   2.3113021e+00   2.9248556e-01   2.3768013e-01   0.0000000e+00
3.3434765e-01   2.5478665e+00   2.0055328e+00   8.4929024e-02   2.1381651e+00   2.2779809e+00   2.9645279e-01   2.3127302e-01   0.0000000e+00
3.4268087e-01   2.5160683e+00   1.9801385e+00   8.3869099e-02   2.1045018e+00   2.2440442e+00   2.9583288e-01   2.2363801e-01   0.0000000e+00
3.5099444e-01   2.4856757e+00   1.9559002e+00   8.2855992e-02   2.0692222e+00   2.2096247e+00   2.9199659e-01   2.1537609e-01   0.0000000e+00
3.5928797e-01   2.4569700e+00   1.9330500e+00   8.1899100e-02   2.0327100e+00   2.1748400e+00   2.8657800e-01   2.0714400e-01   0.0000000e+00
3.6756115e-01   2.4300363e+00   1.9116613e+00   8.1001270e-02   1.9953834e+00   2.1397621e+00   2.8097258e-01   1.9949979e-01   0.0000000e+00
3.7581401e-01   2.4041739e+00   1.8911726e+00   8.0139162e-02   1.9577991e+00   2.1042825e+00   2.7562127e-01   1.9260683e-01   0.0000000e+00
3.8404667e-01   2.3784857e+00   1.8708636e+00   7.9282886e-02   1.9205481e+00   2.0682473e+00   2.7072640e-01   1.8652980e-01   0.0000000e+00
3.9225915e-01   2.3521335e+00   1.8500615e+00   7.8404513e-02   1.8841994e+00   2.0315128e+00   2.6639476e-01   1.8129221e-01   0.0000000e+00
4.0045099e-01   2.3247144e+00   1.8284447e+00   7.7490603e-02   1.8491553e+00   1.9940119e+00   2.6202725e-01   1.7661315e-01   0.0000000e+00
4.0862145e-01   2.2960207e+00   1.8058490e+00   7.6534205e-02   1.8157440e+00   1.9557114e+00   2.5670835e-01   1.7207526e-01   0.0000000e+00
4.1676986e-01   2.2658623e+00   1.7821241e+00   7.5528960e-02   1.7842423e+00   1.9165851e+00   2.4958267e-01   1.6730277e-01   0.0000000e+00
4.2489638e-01   2.2342994e+00   1.7573179e+00   7.4476855e-02   1.7541680e+00   1.8767063e+00   2.4071657e-01   1.6255173e-01   0.0000000e+00
4.3300178e-01   2.2015846e+00   1.7316305e+00   7.3386309e-02   1.7244547e+00   1.8362249e+00   2.3088595e-01   1.5856458e-01   0.0000000e+00
4.4108685e-01   2.1679745e+00   1.7052650e+00   7.2265871e-02   1.6940368e+00   1.7952960e+00   2.2086929e-01   1.5602856e-01   0.0000000e+00
4.4915169e-01   2.1336859e+00   1.6783842e+00   7.1122784e-02   1.6624741e+00   1.7541954e+00   2.1083387e-01   1.5299981e-01   0.0000000e+00
4.5719557e-01   2.0988834e+00   1.6510984e+00   6.9962601e-02   1.6301385e+00   1.7133559e+00   2.0015307e-01   1.4411652e-01   0.0000000e+00
4.6521767e-01   2.0637283e+00   1.6235143e+00   6.8790750e-02   1.5974557e+00   1.6732198e+00   1.8815538e-01   1.2381972e-01   0.0000000e+00
4.7321762e-01   2.0283208e+00   1.5956969e+00   6.7610597e-02   1.5647311e+00   1.6340695e+00   1.7590542e-01   9.3174473e-02   0.0000000e+00
4.8119609e-01   1.9926258e+00   1.5676188e+00   6.6420901e-02   1.5320021e+00   1.5958306e+00   1.6834124e-01   6.8024964e-02   0.0000000e+00
4.8915386e-01   1.9565900e+00   1.5392400e+00   6.5219800e-02   1.4992700e+00   1.5583800e+00   1.7092500e-01   6.6215100e-02   0.0000000e+00
4.9709148e-01   1.9201632e+00   1.5105266e+00   6.4005564e-02   1.4663866e+00   1.5215759e+00   1.8489599e-01   9.7082111e-02   0.0000000e+00
5.0500850e-01   1.8833083e+00   1.4814689e+00   6.2776997e-02   1.4326071e+00   1.4852000e+00   1.9460194e-01   1.3593652e-01   0.0000000e+00
5.1290425e-01   1.8459917e+00   1.4520632e+00   6.1533034e-02   1.3970374e+00   1.4490150e+00   1.8016769e-01   1.4958218e-01   0.0000000e+00
5.2077812e-01   1.8081859e+00   1.4223088e+00   6.0272813e-02   1.3591005e+00   1.4128115e+00   1.2607391e-01   1.1078942e-01   0.0000000e+00
5.2863012e-01   1.7699100e+00   1.3922266e+00   5.8996965e-02   1.3205619e+00   1.3765871e+00   4.8993625e-02   3.6424678e-02   0.0000000e+00
5.3646054e-01   1.7312039e+00   1.3618477e+00   5.7706790e-02   1.2842378e+00   1.3404322e+00   1.9971455e-02   3.6881634e-02   0.0000000e+00
5.4426963e-01   1.6921050e+00   1.3311997e+00   5.6403502e-02   1.2527923e+00   1.3044211e+00   5.1728906e-02   7.4498437e-02   0.0000000e+00
5.5205725e-01   1.6526101e+00   1.3002616e+00   5.5086998e-02   1.2265490e+00   1.2683823e+00   4.8269646e-02   7.3105748e-02   0.0000000e+00
5.5982297e-01   1.6126855e+00   1.2689745e+00   5.3756160e-02   1.2040291e+00   1.2319550e+00   3.5512616e-02   5.3486928e-02   0.0000000e+00
5.6756634e-01   1.5722967e+00   1.2372795e+00   5.2409852e-02   1.1837207e+00   1.1947839e+00   3.9492432e-02   3.6744145e-02   0.0000000e+00
5.7528719e-01   1.5314205e+00   1.2051411e+00   5.1047315e-02   1.1646229e+00   1.1569208e+00   6.6812611e-02   3.2269868e-02   0.0000000e+00
5.8298566e-01   1.4900489e+00   1.1725542e+00   4.9668275e-02   1.1463981e+00   1.1189462e+00   9.8834989e-02   3.4245252e-02   0.0000000e+00
5.9066194e-01   1.4481748e+00   1.1395163e+00   4.8272498e-02   1.1287531e+00   1.0814746e+00   1.1528279e-01   3.5847971e-02   0.0000000e+00
5.9831608e-01   1.4058292e+00   1.1060626e+00   4.6861018e-02   1.1113341e+00   1.0448556e+00   1.0612662e-01   3.3035822e-02   0.0000000e+00
6.0594785e-01   1.3631284e+00   1.0723133e+00   4.5437702e-02   1.0936521e+00   1.0088479e+00   8.4200293e-02   2.7969429e-02   0.0000000e+00
6.1355698e-01   1.3202000e+00   1.0384000e+00   4.4006800e-02   1.0752000e+00   9.7313000e-01   6.5431200e-02   2.3648700e-02   0.0000000e+00
6.2114324e-01   1.2772129e+00   1.0044824e+00   4.2573936e-02   1.0556208e+00   9.3748154e-01   6.1510520e-02   2.2260562e-02   0.0000000e+00
6.2870648e-01   1.2345014e+00   9.7083248e-01   4.1150238e-02   1.0351580e+00   9.0208605e-01   6.7184666e-02   2.2740018e-02   0.0000000e+00
6.3624662e-01   1.1924409e+00   9.3775001e-01   3.9748206e-02   1.0142048e+00   8.6722806e-01   7.2963857e-02   2.3209093e-02   0.0000000e+00
6.4376355e-01   1.1513815e+00   9.0551425e-01   3.8379498e-02   9.9304416e-01   8.3312939e-01   7.0607853e-02   2.2037859e-02   0.0000000e+00
6.5125726e-01   1.1114849e+00   8.7425178e-01   3.7049523e-02   9.7114005e-01   7.9954841e-01   6.1111295e-02   1.9429632e-02   0.0000000e+00
6.5872776e-01   1.0728282e+00   8.4402070e-01   3.5760893e-02   9.4758970e-01   7.6603578e-01   4.9607925e-02   1.6409394e-02   0.0000000e+00
6.6617506e-01   1.0354805e+00   8.1487251e-01   3.4515937e-02   9.2153449e-01   7.3219385e-01   4.1000406e-02   1.3960436e-02   0.0000000e+00
6.7359919e-01   9.9939030e-01   7.8676452e-01   3.3312947e-02   8.9280265e-01   6.9841293e-01   3.6441687e-02   1.2384239e-02   0.0000000e+00
6.8100023e-01   9.6441396e-01   7.5958151e-01   3.2147108e-02   8.6175116e-01   6.6568987e-01   3.4198173e-02   1.1457426e-02   0.0000000e+00
6.8837823e-01   9.3040653e-01   7.3320710e-01   3.1013565e-02   8.2875469e-01   6.3501952e-01   3.2483550e-02   1.0943705e-02   0.0000000e+00
6.9573312e-01   8.9727037e-01   7.0755133e-01   2.9909048e-02   7.9434688e-01   6.0671100e-01   3.0348485e-02   1.0629638e-02   0.0000000e+00
7.0306463e-01   8.6496925e-01   6.8255861e-01   2.8832350e-02   7.5926785e-01   5.8018272e-01   2.7930922e-02   1.0331472e-02   0.0000000e+00
7.1037252e-01   8.3347113e-01   6.5817572e-01   2.7782400e-02   7.2427046e-01   5.5479459e-01   2.5441236e-02   9.8679541e-03   0.0000000e+00
7.1765658e-01   8.0275997e-01   6.3437043e-01   2.6758668e-02   6.8987822e-01   5.3013633e-01   2.3040908e-02   9.1670398e-03   0.0000000e+00
7.2491680e-01   7.7285543e-01   6.1115724e-01   2.5761824e-02   6.5610289e-01   5.0631023e-01   2.0782322e-02   8.4003489e-03   0.0000000e+00
7.3215319e-01   7.4378200e-01   5.8855700e-01   2.4792700e-02   6.2288700e-01   4.8348800e-01   1.8703100e-02   7.7724700e-03   0.0000000e+00
7.3936568e-01   7.1554954e-01   5.6657913e-01   2.3851636e-02   5.9018836e-01   4.6180928e-01   1.6825977e-02   7.4211929e-03   0.0000000e+00
7.4655392e-01   6.8810940e-01   5.4518741e-01   2.2936994e-02   5.5802593e-01   4.4128560e-01   1.5114137e-02   7.2171124e-03   0.0000000e+00
7.5371748e-01   6.6139830e-01   5.2433421e-01   2.2046643e-02   5.2643394e-01   4.2189648e-01   1.3515873e-02   6.9640245e-03   0.0000000e+00
7.6085595e-01   6.3535598e-01   5.0397407e-01   2.1178556e-02   4.9543618e-01   4.0354541e-01   1.1984902e-02   6.4940100e-03   0.0000000e+00
7.6796901e-01   6.0994434e-01   4.8407772e-01   2.0331473e-02   4.6497948e-01   3.8557407e-01   1.0514993e-02   5.8481940e-03   0.0000000e+00
7.7505634e-01   5.8513523e-01   4.6462309e-01   1.9504478e-02   4.3497610e-01   3.6707234e-01   9.1178725e-03   5.1613958e-03   0.0000000e+00
7.8211768e-01   5.6089838e-01   4.4558671e-01   1.8696583e-02   4.0535639e-01   3.4720520e-01   7.8059364e-03   4.5621377e-03   0.0000000e+00
7.8915306e-01   5.3717105e-01   4.2692279e-01   1.7905696e-02   3.7632317e-01   3.2627941e-01   6.6003779e-03   4.0781091e-03   0.0000000e+00
7.9616276e-01   5.1386556e-01   4.0856841e-01   1.7128874e-02   3.4828903e-01   3.0548064e-01   5.5291609e-03   3.6593781e-03   0.0000000e+00
8.0314706e-01   4.9089443e-01   3.9046082e-01   1.6363184e-02   3.2165649e-01   2.8598976e-01   4.6196418e-03   3.2547157e-03   0.0000000e+00
8.1010634e-01   4.6820355e-01   3.7256099e-01   1.5606814e-02   2.9622585e-01   2.6792143e-01   3.8687948e-03   2.8400959e-03   0.0000000e+00
8.1704108e-01   4.4578223e-01   3.5486070e-01   1.4859420e-02   2.7101517e-01   2.5000527e-01   3.2341257e-03   2.4268298e-03   0.0000000e+00
8.2395177e-01   4.2362272e-01   3.3735385e-01   1.4120755e-02   2.4499699e-01   2.3088487e-01   2.6705973e-03   2.0285957e-03   0.0000000e+00
8.3083814e-01   4.0173195e-01   3.2004579e-01   1.3391058e-02   2.1857793e-01   2.1059051e-01   2.1532171e-03   1.6601531e-03   0.0000000e+00
8.3769814e-01   3.8014966e-01   3.0296739e-01   1.2671650e-02   1.9536422e-01   1.9224631e-01   1.7017145e-03   1.3386747e-03   0.0000000e+00
8.4452950e-01   3.5892000e-01   2.8615300e-01   1.1964000e-02   1.7939500e-01   1.7939500e-01   1.3418700e-03   1.0816600e-03   0.0000000e+00
8.5133073e-01   3.3807290e-01   2.6962572e-01   1.1269103e-02   1.7328507e-01   1.7438615e-01   1.0895492e-03   8.9960304e-04   0.0000000e+00
8.5810332e-01   3.1758141e-01   2.5336374e-01   1.0586057e-02   1.7395175e-01   1.7479664e-01   9.2095763e-04   7.7497750e-04   0.0000000e+00
8.6484957e-01   2.9740431e-01   2.3733399e-01   9.9134877e-03   1.7688802e-01   1.7701016e-01   8.0238553e-04   6.8325190e-04   0.0000000e+00
8.7157141e-01   2.7751717e-01   2.2151715e-01   9.2505781e-03   1.7805432e-01   1.7778156e-01   7.0291158e-04   6.0206405e-04   0.0000000e+00
8.7826841e-01   2.5801914e-01   2.0599527e-01   8.6006357e-03   1.7686625e-01   1.7660849e-01   6.1222161e-04   5.2508414e-04   0.0000000e+00
8.8493905e-01   2.3906481e-01   1.9089586e-01   7.9688164e-03   1.7428796e-01   1.7421796e-01   5.2923763e-04   4.5316816e-04   0.0000000e+00
8.9158185e-01   2.2080106e-01   1.7634013e-01   7.3600192e-03   1.7125190e-01   1.7131461e-01   4.5296695e-04   3.8716380e-04   0.0000000e+00
8.9819627e-01   2.0325559e-01   1.6235181e-01   6.7751681e-03   1.6810625e-01   1.6818187e-01   3.8304146e-04   3.2728772e-04   0.0000000e+00
9.0478248e-01   1.8636434e-01   1.4887966e-01   6.2121271e-03   1.6474947e-01   1.6477893e-01   3.1957381e-04   2.7327085e-04   0.0000000e+00
9.1134065e-01   1.7006191e-01   1.3587129e-01   5.6687145e-03   1.6107576e-01   1.6106305e-01   2.6269046e-04   2.2483821e-04   0.0000000e+00
9.1787081e-01   1.5432142e-01   1.2330592e-01   5.1440343e-03   1.5726384e-01   1.5724243e-01   2.1257347e-04   1.8197211e-04   0.0000000e+00
9.2437277e-01   1.3916609e-01   1.1120376e-01   4.6388601e-03   1.5386206e-01   1.5385122e-01   1.6947711e-04   1.4498902e-04   0.0000000e+00
9.3084634e-01   1.2462245e-01   9.9587766e-02   4.1540756e-03   1.5144207e-01   1.5144400e-01   1.3366277e-04   1.1422944e-04   0.0000000e+00
9.3729135e-01   1.1070661e-01   8.8472040e-02   3.6902182e-03   1.5028628e-01   1.5029219e-01   1.0587391e-04   9.0389730e-05   0.0000000e+00
9.4370774e-01   9.7411554e-02   7.7851025e-02   3.2470528e-03   1.5003170e-01   1.5003546e-01   8.7929537e-05   7.4960280e-05   0.0000000e+00
9.5009546e-01   8.4727100e-02   6.7716500e-02   2.8242400e-03   1.5022800e-01   1.5022800e-01   8.1794200e-05   6.9538900e-05   0.0000000e+00
9.5645415e-01   7.2635984e-02   5.8054582e-02   2.4212038e-03   1.5047327e-01   1.5047149e-01   8.7996014e-05   7.4533641e-05   0.0000000e+00
9.6278220e-01   6.1092571e-02   4.8828751e-02   2.0364233e-03   1.5055924e-01   1.5055765e-01   1.0131739e-04   8.5593503e-05   0.0000000e+00
9.6907770e-01   5.0044131e-02   3.9996828e-02   1.6681412e-03   1.5032602e-01   1.5032571e-01   1.1510430e-04   9.7177721e-05   0.0000000e+00
9.7533874e-01   3.9437937e-02   3.1516631e-02   1.3146004e-03   1.4961373e-01   1.4961489e-01   1.2270275e-04   1.0374553e-04   0.0000000e+00
9.8156340e-01   2.9221258e-02   2.3345981e-02   9.7404345e-04   1.4826252e-01   1.4826441e-01   1.1745870e-04   9.9756169e-05   0.0000000e+00
9.8774977e-01   1.9341367e-02   1.5442699e-02   6.4471323e-04   1.4611249e-01   1.4611350e-01   9.2718145e-05   7.9668872e-05   0.0000000e+00
9.9389595e-01   9.7455349e-03   7.7646029e-03   3.2485248e-04   1.4300378e-01   1.4300138e-01   4.1827063e-05   3.7942875e-05   0.0000000e+00
1.0000000e+00   3.8103274e-04   2.6951392e-04   1.2703941e-05   1.3877651e-01   1.3876728e-01   4.1868561e-05   3.0962586e-05   0.0000000e+00
